Frame index	Piezo position (V)	Piezo direction (+-1)	Volume index	Ludl X	Ludl Y
27600	5.816438	-1	-1	80972	44483	
27601	5.890210	-1	-1	80972	44483	
27602	5.963982	-1	-1	80972	44483	
27603	6.038077	-1	-1	80972	44483	
27604	6.105728	-1	-1	80972	44483	
27605	6.145675	-1	-1	80972	44483	
27606	6.151795	-1	-1	80972	44483	
27607	6.132144	1	-1	80972	44483	
27608	6.093164	1	-1	80972	44483	
27609	6.040976	1	-1	80972	44483	
27610	5.977835	1	-1	80972	44483	
27611	5.908573	1	-1	80972	44483	
27612	5.832224	1	-1	80972	44483	
27613	5.754264	1	-1	80972	44483	
27614	5.675982	1	-1	80972	44483	
27615	5.597055	1	-1	80972	44483	
27616	5.518774	1	-1	80972	44483	
27617	5.441136	1	-1	80972	44483	
27618	5.363176	1	-1	80972	44483	
27619	5.285861	1	-1	80972	44483	
27620	5.210157	1	-1	80972	44483	
27621	5.134130	1	-1	80972	44483	
27622	5.057781	1	-1	80972	44483	
27623	4.981755	1	-1	80972	44483	
27624	4.906372	1	-1	80972	44483	
27625	4.830346	1	-1	80972	44483	
27626	4.754642	1	-1	80972	44483	
27627	4.678938	1	-1	80972	44483	
27628	4.603878	1	-1	80972	44483	
27629	4.527852	1	-1	80972	44483	
27630	4.452792	1	-1	80972	44483	
27631	4.377088	1	-1	80972	44483	
27632	4.302028	1	-1	80972	44483	
27633	4.226968	1	-1	80972	44483	
27634	4.151909	1	-1	80972	44483	
27635	4.077816	1	-1	80972	44483	
27636	4.003078	1	-1	80972	44483	
27637	3.931240	1	-1	80972	44483	
27638	3.879697	1	-1	80972	44483	
27639	3.858436	1	-1	80972	44483	
27640	3.868744	1	-1	80972	44483	
27641	3.901281	-1	-1	80972	44483	
27642	3.953468	-1	-1	80972	44483	
27643	4.018219	-1	-1	80972	44483	
27644	4.092312	-1	-1	80972	44483	
27645	4.171882	-1	-1	80972	44483	
27646	4.253384	-1	-1	80972	44483	
27647	4.335209	-1	-1	80972	44483	
27648	4.417034	-1	-1	80972	44483	
27649	4.496926	-1	-1	80972	44483	
27650	4.576173	-1	-1	80972	44483	
27651	4.654777	-1	-1	80972	44483	
27652	4.731769	-1	-1	80972	44483	
27653	4.807474	-1	-1	80972	44483	
27654	4.883822	-1	-1	80972	44483	
27655	4.957916	-1	-1	80972	44483	
27656	5.032976	-1	-1	80972	44483	
27657	5.107714	-1	-1	80972	44483	
27658	5.181485	-1	-1	80972	44483	
27659	5.255579	-1	-1	80972	44483	
27660	5.329351	-1	-1	80972	44483	
27661	5.404089	-1	-1	80972	44483	
27662	5.478505	-1	-1	80972	44483	
27663	5.552599	-1	-1	80972	44483	
27664	5.627015	-1	-1	80972	44483	
27665	5.700143	-1	-1	80972	44483	
27666	5.774237	-1	-1	80972	44483	
27667	5.848653	-1	-1	80972	44483	
27668	5.922103	-1	-1	80972	44483	
27669	5.996197	-1	-1	80972	44483	
27670	6.069003	-1	-1	80972	44483	
27671	6.126990	-1	-1	80972	44483	
27672	6.152762	-1	-1	80972	44483	
27673	6.146319	-1	-1	80972	44483	
27674	6.117003	1	-1	80972	44483	
27675	6.072224	1	-1	80972	44483	
27676	6.014560	1	-1	80972	44483	
27677	5.948519	1	-1	80972	44483	
27678	5.874747	1	-1	80972	44483	
27679	5.798720	1	-1	80972	44483	
27680	5.720116	1	-1	80972	44483	
27681	5.641512	1	-1	80972	44483	
27682	5.562908	1	-1	80972	44483	
27683	5.483982	1	-1	80972	44483	
27684	5.406988	1	-1	80972	44483	
27685	5.329995	1	-1	80972	44483	
27686	5.253646	1	-1	80972	44483	
27687	5.176975	1	-1	80972	44483	
27688	5.100949	1	-1	80972	44483	
27689	5.025244	1	-1	80972	44483	
27690	4.949218	1	-1	80972	44483	
27691	4.872869	1	-1	80972	44483	
27692	4.797165	1	-1	80972	44483	
27693	4.721783	1	-1	80972	44483	
27694	4.645757	1	-1	80972	44483	
27695	4.570697	1	-1	80972	44483	
27696	4.495315	1	-1	80972	44483	
27697	4.419611	1	-1	80972	44483	
27698	4.344873	1	-1	80972	44483	
27699	4.269169	1	-1	80972	44483	
27700	4.194110	1	-1	80972	44483	
27701	4.120017	1	-1	80972	44483	
27702	4.045601	1	-1	80972	44483	
27703	3.971186	1	-1	80972	44483	
27704	3.905147	1	-1	80972	44483	
27705	3.865845	1	-1	80972	44483	
27706	3.859402	1	-1	80972	44483	
27707	3.880019	-1	-1	80972	44483	
27708	3.921898	-1	-1	80972	44483	
27709	3.979240	-1	-1	80972	44483	
27710	4.049145	-1	-1	80972	44483	
27711	4.125815	-1	-1	80972	44483	
27712	4.206673	-1	-1	80972	44483	
27713	4.288820	-1	-1	80972	44483	
27714	4.370967	-1	-1	80972	44483	
27715	4.451181	-1	-1	80972	44483	
27716	4.531717	-1	-1	80972	44483	
27717	4.609999	-1	-1	80972	44483	
27718	4.688280	-1	-1	80972	44483	
27719	4.765273	-1	-1	80972	44483	
27720	4.840333	-1	-1	80972	44483	
27721	4.916037	-1	-1	80972	44483	
27722	4.990775	-1	-1	80972	44483	
27723	5.064546	-1	-1	80972	44483	
27724	5.139284	-1	-1	80972	44483	
27725	5.213056	-1	-1	80972	44483	
27726	5.287472	-1	-1	80972	44483	
27727	5.362210	-1	-1	80972	44483	
27728	5.435982	-1	-1	80972	44483	
27729	5.510398	-1	-1	80972	44483	
27730	5.583847	-1	-1	80972	44483	
27731	5.658264	-1	-1	80972	44483	
27732	5.732680	-1	-1	80972	44483	
27733	5.806452	-1	-1	80972	44483	
27734	5.880546	-1	-1	80972	44483	
27735	5.954318	-1	-1	80972	44483	
27736	6.028090	-1	-1	80972	44483	
27737	6.097030	-1	-1	80972	44483	
27738	6.142453	-1	-1	80972	44483	
27739	6.152762	-1	-1	80972	44483	
27740	6.136977	1	-1	80972	44483	
27741	6.098963	1	-1	80972	44483	
27742	6.048063	1	-1	80972	44483	
27743	5.986855	1	-1	80972	44483	
27744	5.917915	1	-1	80972	44483	
27745	5.842210	1	-1	80972	44483	
27746	5.764250	1	-1	80972	44483	
27747	5.685968	1	-1	80972	44483	
27748	5.607042	1	-1	80972	44483	
27749	5.528760	1	-1	80972	44483	
27750	5.451445	1	-1	80972	44483	
27751	5.373163	1	-1	80972	44483	
27752	5.296492	1	-1	80972	44483	
27753	5.219821	1	-1	80972	44483	
27754	5.143472	1	-1	80972	44483	
27755	5.068412	1	-1	80972	44483	
27756	4.992385	1	-1	80972	44483	
27757	4.916037	1	-1	80972	44483	
27758	4.840010	1	-1	80972	44483	
27759	4.764628	1	-1	80972	44483	
27760	4.688924	1	-1	80972	44483	
27761	4.613220	1	-1	80972	44483	
27762	4.537516	1	-1	80972	44483	
27763	4.462456	1	-1	80972	44483	
27764	4.386430	1	-1	80972	44483	
27765	4.311048	1	-1	80972	44483	
27766	4.236955	1	-1	80972	44483	
27767	4.161573	1	-1	80972	44483	
27768	4.087158	1	-1	80972	44483	
27769	4.012743	1	-1	80972	44483	
27770	3.940260	1	-1	80972	44483	
27771	3.884852	1	-1	80972	44483	
27772	3.858758	1	-1	80972	44483	
27773	3.866167	1	-1	80972	44483	
27774	3.896127	-1	-1	80972	44483	
27775	3.945737	-1	-1	80972	44483	
27776	4.008233	-1	-1	80972	44483	
27777	4.082004	-1	-1	80972	44483	
27778	4.161251	-1	-1	80972	44483	
27779	4.242431	-1	-1	80972	44483	
27780	4.324578	-1	-1	80972	44483	
27781	4.406403	-1	-1	80972	44483	
27782	4.486295	-1	-1	80972	44483	
27783	4.566509	-1	-1	80972	44483	
27784	4.644146	-1	-1	80972	44483	
27785	4.721139	-1	-1	80972	44483	
27786	4.797487	-1	-1	80972	44483	
27787	4.872869	-1	-1	80972	44483	
27788	4.948574	-1	-1	80972	44483	
27789	5.023312	-1	-1	80972	44483	
27790	5.097083	-1	-1	80972	44483	
27791	5.171499	-1	-1	80972	44483	
27792	5.245915	-1	-1	80972	44483	
27793	5.319364	-1	-1	80972	44483	
27794	5.393780	-1	-1	80972	44483	
27795	5.467874	-1	-1	80972	44483	
27796	5.542290	-1	-1	80972	44483	
27797	5.616384	-1	-1	80972	44483	
27798	5.690478	-1	-1	80972	44483	
27799	5.765217	-1	-1	80972	44483	
27800	5.838344	-1	-1	80972	44483	
27801	5.912761	-1	-1	80972	44483	
27802	5.986533	-1	-1	80972	44483	
27803	6.059983	-1	-1	80972	44483	
27804	6.121513	-1	-1	80972	44483	
27805	6.150829	-1	-1	80972	44483	
27806	6.148574	-1	-1	80972	44483	
27807	6.122158	1	-1	80972	44483	
27808	6.078023	1	-1	80972	44483	
27809	6.022614	1	-1	80972	44483	
27810	5.957539	1	-1	80972	44483	
27811	5.885378	1	-1	80972	44483	
27812	5.808385	1	-1	80972	44483	
27813	5.729458	1	-1	80972	44483	
27814	5.651176	1	-1	80972	44483	
27815	5.573216	1	-1	80972	44483	
27816	5.494290	1	-1	80972	44483	
27817	5.417619	1	-1	80972	44483	
27818	5.339660	1	-1	80972	44483	
27819	5.263311	1	-1	80972	44483	
27820	5.186640	1	-1	80972	44483	
27821	5.110613	1	-1	80972	44483	
27822	5.034587	1	-1	80972	44483	
27823	4.959204	1	-1	80972	44483	
27824	4.882856	1	-1	80972	44483	
27825	4.807796	1	-1	80972	44483	
27826	4.732414	1	-1	80972	44483	
27827	4.656710	1	-1	80972	44483	
27828	4.581005	1	-1	80972	44483	
27829	4.505301	1	-1	80972	44483	
27830	4.429597	1	-1	80972	44483	
27831	4.354538	1	-1	80972	44483	
27832	4.278834	1	-1	80972	44483	
27833	4.204096	1	-1	80972	44483	
27834	4.129037	1	-1	80972	44483	
27835	4.054621	1	-1	80972	44483	
27836	3.981172	1	-1	80972	44483	
27837	3.912878	1	-1	80972	44483	
27838	3.869066	1	-1	80972	44483	
27839	3.858114	1	-1	80972	44483	
27840	3.876476	-1	-1	80972	44483	
27841	3.915777	-1	-1	80972	44483	
27842	3.971186	-1	-1	80972	44483	
27843	4.039803	-1	-1	80972	44483	
27844	4.116473	-1	-1	80972	44483	
27845	4.196043	-1	-1	80972	44483	
27846	4.277545	-1	-1	80972	44483	
27847	4.359692	-1	-1	80972	44483	
27848	4.440872	-1	-1	80972	44483	
27849	4.521731	-1	-1	80972	44483	
27850	4.600656	-1	-1	80972	44483	
27851	4.677649	-1	-1	80972	44483	
27852	4.754964	-1	-1	80972	44483	
27853	4.830990	-1	-1	80972	44483	
27854	4.906695	-1	-1	80972	44483	
27855	4.981110	-1	-1	80972	44483	
27856	5.055204	-1	-1	80972	44483	
27857	5.129298	-1	-1	80972	44483	
27858	5.204036	-1	-1	80972	44483	
27859	5.277807	-1	-1	80972	44483	
27860	5.351901	-1	-1	80972	44483	
27861	5.426639	-1	-1	80972	44483	
27862	5.500733	-1	-1	80972	44483	
27863	5.574827	-1	-1	80972	44483	
27864	5.648921	-1	-1	80972	44483	
27865	5.722693	-1	-1	80972	44483	
27866	5.797432	-1	-1	80972	44483	
27867	5.871526	-1	-1	80972	44483	
27868	5.944331	-1	-1	80972	44483	
27869	6.018426	-1	-1	80972	44483	
27870	6.089298	-1	-1	80972	44483	
27871	6.138909	-1	-1	80972	44483	
27872	6.154050	-1	-1	80972	44482	
27873	6.139876	1	-1	80972	44482	
27874	6.105406	1	-1	80972	44482	
27875	6.055795	1	-1	80972	44482	
27876	5.995553	1	-1	80972	44482	
27877	5.927257	1	-1	80972	44482	
27878	5.852519	1	-1	80972	44482	
27879	5.774237	1	-1	80972	44482	
27880	5.695633	1	-1	80972	44482	
27881	5.617029	1	-1	80972	44482	
27882	5.538747	1	-1	80972	44482	
27883	5.461109	1	-1	80972	44482	
27884	5.383794	1	-1	80972	44482	
27885	5.306478	1	-1	80972	44482	
27886	5.230452	1	-1	80972	44482	
27887	5.154425	1	-1	80972	44482	
27888	5.077754	1	-1	80972	44482	
27889	5.002050	1	-1	80972	44482	
27890	4.926023	1	-1	80972	44482	
27891	4.850319	1	-1	80972	44482	
27892	4.774937	1	-1	80972	44482	
27893	4.699233	1	-1	80972	44482	
27894	4.623529	1	-1	80972	44482	
27895	4.548147	1	-1	80972	44482	
27896	4.472443	1	-1	80972	44482	
27897	4.397061	1	-1	80972	44482	
27898	4.321035	1	-1	80972	44482	
27899	4.246297	1	-1	80972	44482	
27900	4.171237	1	-1	80972	44482	
27901	4.096822	1	-1	80972	44482	
27902	4.022407	1	-1	80972	44482	
27903	3.949925	1	-1	80972	44482	
27904	3.890328	1	-1	80972	44482	
27905	3.861013	1	-1	80972	44482	
27906	3.862946	1	-1	80972	44482	
27907	3.891294	-1	-1	80972	44482	
27908	3.938650	-1	-1	80972	44482	
27909	3.999857	-1	-1	80972	44482	
27910	4.071695	-1	-1	80972	44482	
27911	4.150942	-1	-1	80972	44482	
27912	4.232123	-1	-1	80972	44482	
27913	4.313947	-1	-1	80972	44482	
27914	4.395128	-1	-1	80972	44482	
27915	4.476630	-1	-1	80972	44482	
27916	4.556200	-1	-1	80972	44482	
27917	4.634482	-1	-1	80972	44482	
27918	4.712119	-1	-1	80972	44482	
27919	4.788467	-1	-1	80972	44482	
27920	4.863849	-1	-1	80972	44482	
27921	4.939876	-1	-1	80972	44482	
27922	5.013969	-1	-1	80972	44482	
27923	5.087419	-1	-1	80972	44482	
27924	5.162479	-1	-1	80972	44482	
27925	5.236250	-1	-1	80972	44482	
27926	5.310022	-1	-1	80972	44482	
27927	5.384438	-1	-1	80972	44482	
27928	5.458532	-1	-1	80972	44482	
27929	5.532948	-1	-1	80972	44482	
27930	5.606398	-1	-1	80972	44482	
27931	5.681136	-1	-1	80972	44482	
27932	5.755230	-1	-1	80972	44482	
27933	5.828680	-1	-1	80972	44482	
27934	5.902774	-1	-1	80972	44482	
27935	5.977191	-1	-1	80972	44482	
27936	6.050640	-1	-1	80972	44482	
27937	6.115070	-1	-1	80972	44482	
27938	6.149540	-1	-1	80972	44482	
27939	6.150507	-1	-1	80972	44482	
27940	6.126668	1	-1	80972	44482	
27941	6.085433	1	-1	80972	44482	
27942	6.030667	1	-1	80972	44482	
27943	5.966560	1	-1	80972	44482	
27944	5.895365	1	-1	80972	44482	
27945	5.819015	1	-1	80972	44482	
27946	5.740411	1	-1	80972	44482	
27947	5.661485	1	-1	80972	44482	
27948	5.584170	1	-1	80972	44483	
27949	5.505243	1	-1	80972	44483	
27950	5.426639	1	-1	80972	44483	
27951	5.349968	1	-1	80972	44483	
27952	5.273297	1	-1	80972	44483	
27953	5.197271	1	-1	80972	44483	
27954	5.120922	1	-1	80972	44483	
27955	5.044895	1	-1	80972	44483	
27956	4.967902	1	-1	80972	44483	
27957	4.892842	1	-1	80972	44483	
27958	4.817138	1	-1	80972	44483	
27959	4.741434	1	-1	80972	44483	
27960	4.666052	1	-1	80972	44483	
27961	4.590348	1	-1	80972	44483	
27962	4.514966	1	-1	80972	44483	
27963	4.439906	1	-1	80972	44483	
27964	4.364202	1	-1	80972	44483	
27965	4.289142	1	-1	80972	44483	
27966	4.214083	1	-1	80972	44483	
27967	4.139345	1	-1	80972	44483	
27968	4.064608	1	-1	80972	44483	
27969	3.990193	1	-1	80972	44483	
27970	3.919643	1	-1	80972	44483	
27971	3.873577	1	-1	80972	44483	
27972	3.857791	1	-1	80972	44483	
27973	3.872610	-1	-1	80972	44483	
27974	3.909012	-1	-1	80972	44483	
27975	3.963455	-1	-1	80972	44483	
27976	4.030138	-1	-1	80972	44483	
27977	4.105520	-1	-1	80972	44483	
27978	4.185412	-1	-1	80972	44483	
27979	4.267881	-1	-1	80972	44483	
27980	4.350028	-1	-1	80972	44483	
27981	4.430564	-1	-1	80972	44483	
27982	4.510778	-1	-1	80972	44483	
27983	4.590348	-1	-1	80972	44483	
27984	4.668629	-1	-1	80972	44483	
27985	4.744655	-1	-1	80972	44483	
27986	4.821004	-1	-1	80972	44483	
27987	4.897030	-1	-1	80972	44483	
27988	4.971124	-1	-1	80972	44483	
27989	5.046506	-1	-1	80972	44483	
27990	5.119955	-1	-1	80972	44483	
27991	5.194371	-1	-1	80972	44483	
27992	5.268143	-1	-1	80972	44483	
27993	5.342559	-1	-1	80972	44483	
27994	5.416653	-1	-1	80972	44483	
27995	5.490747	-1	-1	80972	44483	
27996	5.565163	-1	-1	80972	44483	
27997	5.638935	-1	-1	80972	44483	
27998	5.712707	-1	-1	80972	44483	
27999	5.787445	-1	-1	80972	44483	
28000	5.861217	-1	-1	80972	44483	
28001	5.934989	-1	-1	80972	44483	
28002	6.008761	-1	-1	80972	44483	
28003	6.080600	-1	-1	80972	44483	
28004	6.134399	-1	-1	80972	44483	
28005	6.153728	-1	-1	80972	44483	
28006	6.142775	-1	-1	80972	44483	
28007	6.110560	1	-1	80972	44483	
28008	6.062882	1	-1	80972	44483	
28009	6.003929	1	-1	80972	44483	
28010	5.936600	1	-1	80972	44483	
28011	5.861861	1	-1	80972	44483	
28012	5.785512	1	-1	80972	44483	
28013	5.706264	1	-1	80972	44483	
28014	5.627015	1	-1	80972	44483	
28015	5.548733	1	-1	80972	44483	
28016	5.470451	1	-1	80972	44483	
28017	5.394102	1	-1	80972	44483	
28018	5.316787	1	-1	80972	44483	
28019	5.240438	1	-1	80972	44483	
28020	5.164090	1	-1	80972	44483	
28021	5.087419	1	-1	80972	44483	
28022	5.012359	1	-1	80972	44483	
28023	4.936010	1	-1	80972	44483	
28024	4.860306	1	-1	80972	44483	
28025	4.784279	1	-1	80972	44483	
28026	4.708253	1	-1	80972	44483	
28027	4.632871	1	-1	80972	44483	
28028	4.557489	1	-1	80972	44483	
28029	4.482751	1	-1	80972	44483	
28030	4.406403	1	-1	80972	44483	
28031	4.331665	1	-1	80972	44483	
28032	4.256284	1	-1	80972	44483	
28033	4.181546	1	-1	80972	44483	
28034	4.106809	1	-1	80972	44483	
28035	4.032716	1	-1	80972	44483	
28036	3.958622	1	-1	80972	44483	
28037	3.896127	1	-1	80972	44483	
28038	3.862624	1	-1	80972	44482	
28039	3.860691	1	-1	80972	44482	
28040	3.886462	-1	-1	80972	44482	
28041	3.931240	-1	-1	80972	44482	
28042	3.991159	-1	-1	80972	44482	
28043	4.062031	-1	-1	80972	44482	
28044	4.139989	-1	-1	80972	44482	
28045	4.220848	-1	-1	80972	44482	
28046	4.302994	-1	-1	80972	44482	
28047	4.384819	-1	-1	80972	44482	
28048	4.465355	-1	-1	80972	44482	
28049	4.545892	-1	-1	80972	44482	
28050	4.623851	-1	-1	80972	44482	
28051	4.701810	-1	-1	80972	44482	
28052	4.778158	-1	-1	80972	44482	
28053	4.854185	-1	-1	80972	44482	
28054	4.928601	-1	-1	80972	44482	
28055	5.003983	-1	-1	80972	44482	
28056	5.077754	-1	-1	80972	44482	
28057	5.152492	-1	-1	80972	44482	
28058	5.226264	-1	-1	80972	44482	
28059	5.300680	-1	-1	80972	44482	
28060	5.374129	-1	-1	80972	44482	
28061	5.448868	-1	-1	80972	44482	
28062	5.523606	-1	-1	80972	44482	
28063	5.597055	-1	-1	80972	44483	
28064	5.671149	-1	-1	80972	44483	
28065	5.745244	-1	-1	80972	44483	
28066	5.819338	-1	-1	80972	44483	
28067	5.893754	-1	-1	80972	44483	
28068	5.967204	-1	-1	80972	44483	
28069	6.041620	-1	-1	80972	44483	
28070	6.107983	-1	-1	80972	44483	
28071	6.146319	-1	-1	80972	44483	
28072	6.152118	-1	-1	80972	44483	
28073	6.130534	1	-1	80972	44483	
28074	6.091876	1	-1	80972	44483	
28075	6.038399	1	-1	80972	44483	
28076	5.974935	1	-1	80972	44483	
28077	5.905351	1	-1	80972	44483	
28078	5.828680	1	-1	80972	44483	
28079	5.750720	1	-1	80972	44483	
28080	5.672438	1	-1	80972	44483	
28081	5.593190	1	-1	80972	44483	
28082	5.515230	1	-1	80972	44483	
28083	5.436948	1	-1	80972	44483	
28084	5.359955	1	-1	80972	44483	
28085	5.283928	1	-1	80972	44483	
28086	5.206935	1	-1	80972	44483	
28087	5.130908	1	-1	80972	44483	
28088	5.054560	1	-1	80972	44483	
28089	4.978533	1	-1	80972	44483	
28090	4.902829	1	-1	80972	44483	
28091	4.827769	1	-1	80972	44483	
28092	4.751420	1	-1	80972	44483	
28093	4.675716	1	-1	80972	44483	
28094	4.600012	1	-1	80972	44483	
28095	4.524952	1	-1	80972	44483	
28096	4.449570	1	-1	80972	44483	
28097	4.372900	1	-1	80972	44483	
28098	4.298807	1	-1	80972	44483	
28099	4.223747	1	-1	80972	44483	
28100	4.149332	1	-1	80972	44483	
28101	4.073628	1	-1	80972	44483	
28102	3.999535	1	-1	80972	44483	
28103	3.928985	1	-1	80972	44483	
28104	3.877442	1	-1	80972	44483	
28105	3.858114	1	-1	80972	44483	
28106	3.869711	1	-1	80972	44483	
28107	3.903214	-1	-1	80972	44483	
28108	3.955723	-1	-1	80972	44483	
28109	4.020474	-1	-1	80972	44483	
28110	4.095211	-1	-1	80972	44483	
28111	4.175747	-1	-1	80972	44483	
28112	4.256928	-1	-1	80972	44483	
28113	4.338430	-1	-1	80972	44483	
28114	4.419611	-1	-1	80972	44483	
28115	4.500469	-1	-1	80972	44483	
28116	4.580039	-1	-1	80972	44483	
28117	4.658642	-1	-1	80972	44483	
28118	4.734991	-1	-1	80972	44483	
28119	4.811339	-1	-1	80972	44483	
28120	4.886077	-1	-1	80972	44483	
28121	4.961459	-1	-1	80972	44483	
28122	5.036197	-1	-1	80972	44483	
28123	5.109969	-1	-1	80972	44483	
28124	5.184385	-1	-1	80972	44483	
28125	5.258479	-1	-1	80972	44483	
28126	5.332572	-1	-1	80972	44483	
28127	5.406666	-1	-1	80972	44483	
28128	5.481082	-1	-1	80972	44483	
28129	5.555498	-1	-1	80972	44483	
28130	5.629592	-1	-1	80972	44483	
28131	5.703042	-1	-1	80972	44483	
28132	5.777458	-1	-1	80972	44483	
28133	5.851875	-1	-1	80972	44483	
28134	5.925969	-1	-1	80972	44483	
28135	5.998774	-1	-1	80972	44483	
28136	6.071902	-1	-1	80972	44483	
28137	6.128923	-1	-1	80972	44483	
28138	6.152762	-1	-1	80972	44483	
28139	6.145997	-1	-1	80972	44483	
28140	6.115392	1	-1	80972	44483	
28141	6.069969	1	-1	80972	44483	
28142	6.011983	1	-1	80972	44483	
28143	5.945620	1	-1	80972	44483	
28144	5.872170	1	-1	80972	44483	
28145	5.794854	1	-1	80972	44483	
28146	5.716894	1	-1	80972	44483	
28147	5.638290	1	-1	80972	44483	
28148	5.559364	1	-1	80972	44483	
28149	5.481082	1	-1	80972	44483	
28150	5.404089	1	-1	80972	44483	
28151	5.326774	1	-1	80972	44483	
28152	5.250103	1	-1	80972	44483	
28153	5.173432	1	-1	80972	44483	
28154	5.097405	1	-1	80972	44483	
28155	5.021701	1	-1	80972	44483	
28156	4.945674	1	-1	80972	44483	
28157	4.869970	1	-1	80972	44483	
28158	4.794266	1	-1	80972	44483	
28159	4.718239	1	-1	80972	44483	
28160	4.641891	1	-1	80972	44483	
28161	4.566831	1	-1	80972	44483	
28162	4.491771	1	-1	80972	44483	
28163	4.416389	1	-1	80972	44483	
28164	4.341330	1	-1	80972	44483	
28165	4.266592	1	-1	80972	44483	
28166	4.190888	1	-1	80972	44483	
28167	4.116151	1	-1	80972	44483	
28168	4.042058	1	-1	80972	44483	
28169	3.967965	1	-1	80972	44483	
28170	3.902569	1	-1	80972	44483	
28171	3.864556	1	-1	80972	44483	
28172	3.859724	1	-1	80972	44483	
28173	3.881308	-1	-1	80972	44483	
28174	3.924153	-1	-1	80972	44483	
28175	3.982461	-1	-1	80972	44483	
28176	4.051722	-1	-1	80972	44483	
